Potential (V)	Current (A)	I forward (A)
-0.09994507	2.386475E-07	1.542664E-07
-0.09689331	2.313538E-07	1.597595E-07
-0.09384155	2.298279E-07	1.621704E-07
-0.09078979	2.282105E-07	1.634521E-07
-0.08773804	2.271423E-07	1.643982E-07
-0.08468628	2.259521E-07	1.64978E-07
-0.08163452	2.251282E-07	1.656189E-07
-0.07858276	2.240906E-07	1.658936E-07
-0.07553101	2.232056E-07	1.660461E-07
-0.07247925	2.222595E-07	1.660156E-07
-0.06942749	2.21283E-07	1.659851E-07
-0.06637573	2.2052E-07	1.659241E-07
-0.06332397	2.194519E-07	1.65741E-07
-0.06027222	2.189026E-07	1.65863E-07
-0.05722046	2.181396E-07	1.656494E-07
-0.0541687	2.172546E-07	1.654358E-07
-0.05111694	2.167969E-07	1.654663E-07
-0.04806519	2.16217E-07	1.654663E-07
-0.04501343	2.156067E-07	1.654053E-07
-0.04196167	2.153931E-07	1.654663E-07
-0.03890991	2.145081E-07	1.652527E-07
-0.03585815	2.140808E-07	1.651306E-07
-0.0328064	2.13501E-07	1.650085E-07
-0.02975464	2.133179E-07	1.652222E-07
-0.02670288	2.130127E-07	1.650696E-07
-0.02365112	2.125549E-07	1.650696E-07
-0.02059937	2.124939E-07	1.652527E-07
-0.01754761	2.120667E-07	1.651306E-07
-0.01449585	2.118225E-07	1.650696E-07
-0.01144409	2.117004E-07	1.652222E-07
-0.008392334	2.114563E-07	1.652527E-07
-0.005340576	2.112122E-07	1.651917E-07
-0.002288818	2.112122E-07	1.654968E-07
0.0007629395	2.10846E-07	1.654663E-07
0.003814697	2.107239E-07	1.655579E-07
0.006866455	2.104492E-07	1.655273E-07
0.009918213	2.104187E-07	1.65802E-07
0.01296997	2.103271E-07	1.65863E-07
0.01602173	2.103577E-07	1.660156E-07
0.01907349	2.103577E-07	1.662292E-07
0.02212524	2.10083E-07	1.661987E-07
0.025177	2.104187E-07	1.665649E-07
0.02822876	2.102966E-07	1.666565E-07
0.03128052	2.104797E-07	1.669312E-07
0.03433228	2.104187E-07	1.672058E-07
0.03738403	2.103577E-07	1.673584E-07
0.04043579	2.104492E-07	1.676331E-07
0.04348755	2.105713E-07	1.678772E-07
0.04653931	2.107544E-07	1.682434E-07
0.04959106	2.106934E-07	1.685181E-07
0.05264282	2.10907E-07	1.688232E-07
0.05569458	2.113953E-07	1.69342E-07
0.05874634	2.112122E-07	1.696167E-07
0.0617981	2.115173E-07	1.700745E-07
0.06484985	2.118225E-07	1.705017E-07
0.06790161	2.120056E-07	1.7099E-07
0.07095337	2.120972E-07	1.712341E-07
0.07400513	2.122498E-07	1.716919E-07
0.07705688	2.125244E-07	1.722107E-07
0.08010864	2.124023E-07	1.723633E-07
0.0831604	2.129822E-07	1.730957E-07
0.08621216	2.134094E-07	1.73645E-07
0.08926392	2.137146E-07	1.741028E-07
0.09231567	2.138061E-07	1.7453E-07
0.09536743	2.142639E-07	1.751404E-07
0.09841919	2.145081E-07	1.755981E-07
0.1014709	2.149658E-07	1.761475E-07
0.1045227	2.151489E-07	1.766052E-07
0.1075745	2.154846E-07	1.77124E-07
0.1106262	2.159424E-07	1.777344E-07
0.113678	2.166748E-07	1.786194E-07
0.1167297	2.171936E-07	1.791382E-07
0.1197815	2.175598E-07	1.798401E-07
0.1228333	2.181091E-07	1.80542E-07
0.125885	2.18811E-07	1.812134E-07
0.1289368	2.19635E-07	1.821594E-07
0.1319885	2.202148E-07	1.829224E-07
0.1350403	2.208252E-07	1.837463E-07
0.138092	2.215881E-07	1.847229E-07
0.1411438	2.223816E-07	1.856079E-07
0.1441956	2.232971E-07	1.867065E-07
0.1472473	2.242126E-07	1.877136E-07
0.1502991	2.253113E-07	1.888733E-07
0.1533508	2.262573E-07	1.901245E-07
0.1564026	2.272949E-07	1.913452E-07
0.1594543	2.284851E-07	1.925354E-07
0.1625061	2.294312E-07	1.938171E-07
0.1655579	2.308655E-07	1.953125E-07
0.1686096	2.318726E-07	1.966248E-07
0.1716614	2.331238E-07	1.980591E-07
0.1747131	2.346191E-07	1.997375E-07
0.1777649	2.359924E-07	2.012939E-07
0.1808167	2.374268E-07	2.03064E-07
0.1838684	2.389526E-07	2.04834E-07
0.1869202	2.403565E-07	2.06665E-07
0.1899719	2.42218E-07	2.087097E-07
0.1930237	2.436828E-07	2.105408E-07
0.1960754	2.453613E-07	2.125549E-07
0.1991272	2.471619E-07	2.146606E-07
0.202179	2.486877E-07	2.167358E-07
0.2052307	2.505188E-07	2.189636E-07
0.2082825	2.521057E-07	2.210693E-07
0.2113342	2.538757E-07	2.233276E-07
0.214386	2.556457E-07	2.255554E-07
0.2174377	2.570801E-07	2.276306E-07
0.2204895	2.590332E-07	2.30072E-07
0.2235413	2.605286E-07	2.323303E-07
0.226593	2.62207E-07	2.346497E-07
0.2296448	2.636719E-07	2.367859E-07
0.2326965	2.652161E-07	2.388916E-07
0.2357483	2.665955E-07	2.411499E-07
0.2388	2.680939E-07	2.432861E-07
0.2418518	2.693756E-07	2.454529E-07
0.2449036	2.709839E-07	2.476196E-07
0.2479553	2.722473E-07	2.496948E-07
0.2510071	2.737274E-07	2.519836E-07
0.2540588	2.75058E-07	2.542114E-07
0.2571106	2.764648E-07	2.564087E-07
0.2601624	2.780212E-07	2.587585E-07
0.2632141	2.79187E-07	2.608032E-07
0.2662659	2.803223E-07	2.630005E-07
0.2693176	2.82074E-07	2.65564E-07
0.2723694	2.84021E-07	2.68219E-07
0.2754211	2.854279E-07	2.706299E-07
0.2784729	2.870514E-07	2.732849E-07
0.2815247	2.888123E-07	2.758484E-07
0.2845764	2.907196E-07	2.788086E-07
0.2876282	2.926209E-07	2.816772E-07
0.2906799	2.947662E-07	2.848511E-07
0.2937317	2.965607E-07	2.877197E-07
0.2967834	2.986878E-07	2.909241E-07
0.2998352	3.011444E-07	2.944031E-07
0.302887	3.032044E-07	2.977295E-07
0.3059387	3.05426E-07	3.01178E-07
0.3089905	3.079102E-07	3.048401E-07
0.3120422	3.101684E-07	3.084717E-07
0.315094	3.126831E-07	3.121948E-07
0.3181458	3.151794E-07	3.15979E-07
0.3211975	3.176941E-07	3.199158E-07
0.3242493	3.204163E-07	3.238525E-07
0.327301	3.230499E-07	3.279419E-07
0.3303528	3.256226E-07	3.319397E-07
0.3334045	3.287171E-07	3.362427E-07
0.3364563	3.314636E-07	3.405151E-07
0.3395081	3.3414E-07	3.44696E-07
0.3425598	3.370514E-07	3.491211E-07
0.3456116	3.40271E-07	3.537598E-07
0.3486633	3.429169E-07	3.580933E-07
0.3517151	3.457062E-07	3.625794E-07
0.3547668	3.487091E-07	3.67157E-07
0.3578186	3.518952E-07	3.718872E-07
0.3608704	3.548187E-07	3.765869E-07
0.3639221	3.580597E-07	3.815308E-07
0.3669739	3.611816E-07	3.86261E-07
0.3700256	3.644409E-07	3.913879E-07
0.3730774	3.676117E-07	3.964233E-07
0.3761292	3.709106E-07	4.015503E-07
0.3791809	3.677368E-07	4.01001E-07
0.3822327	3.704834E-07	4.06189E-07
0.3852844	3.738098E-07	4.11377E-07
0.3883362	3.772278E-07	4.168701E-07
0.3913879	3.807678E-07	4.226684E-07
0.3944397	3.83728E-07	4.278564E-07
0.3974915	3.875427E-07	4.336548E-07
0.4005432	3.913879E-07	4.397583E-07
0.403595	3.948059E-07	4.452515E-07
0.4066467	3.98529E-07	4.51355E-07
0.4096985	4.025879E-07	4.577637E-07
0.4127502	4.060059E-07	4.63562E-07
0.415802	4.102173E-07	4.702759E-07
0.4188538	4.141846E-07	4.766846E-07
0.4219055	4.176636E-07	4.830933E-07
0.4249573	4.224243E-07	4.901123E-07
0.428009	4.266358E-07	4.971313E-07
0.4310608	4.312134E-07	5.044556E-07
0.4341125	4.356079E-07	5.114746E-07
0.4371643	4.400635E-07	5.187989E-07
0.4402161	4.450378E-07	5.267334E-07
0.4432678	4.501343E-07	5.346679E-07
0.4463196	4.553833E-07	5.429077E-07
0.4493713	4.606018E-07	5.511475E-07
0.4524231	4.656677E-07	5.593872E-07
0.4554749	4.710999E-07	5.679321E-07
0.4585266	4.770508E-07	5.770874E-07
0.4615784	4.830628E-07	5.862427E-07
0.4646301	4.888E-07	5.953979E-07
0.4676819	4.952698E-07	6.051636E-07
0.4707336	5.018616E-07	6.152344E-07
0.4737854	5.079956E-07	6.25E-07
0.4768372	5.147095E-07	6.35376E-07
0.4798889	5.216065E-07	6.460571E-07
0.4829407	5.286865E-07	6.567383E-07
0.4859924	5.362549E-07	6.680298E-07
0.4890442	5.437927E-07	6.793213E-07
0.4920959	5.513306E-07	6.909179E-07
0.4951477	5.587768E-07	7.025146E-07
0.4981995	5.672608E-07	7.150268E-07
