Potential (V)	Current (A)	I forward (A)
-0.09994507	3.536987E-07	2.328796E-07
-0.09689331	3.417664E-07	2.393188E-07
-0.09384155	3.392334E-07	2.421875E-07
-0.09078979	3.367005E-07	2.435303E-07
-0.08773804	3.346252E-07	2.44812E-07
-0.08468628	3.326416E-07	2.452698E-07
-0.08163452	3.303833E-07	2.453918E-07
-0.07858276	3.287048E-07	2.458496E-07
-0.07553101	3.269653E-07	2.458496E-07
-0.07247925	3.251953E-07	2.456665E-07
-0.06942749	3.236084E-07	2.457275E-07
-0.06637573	3.217163E-07	2.453308E-07
-0.06332397	3.199463E-07	2.449341E-07
-0.06027222	3.184815E-07	2.445068E-07
-0.05722046	3.167419E-07	2.441711E-07
-0.0541687	3.155517E-07	2.438965E-07
-0.05111694	3.139648E-07	2.436218E-07
-0.04806519	3.127747E-07	2.435303E-07
-0.04501343	3.11676E-07	2.431641E-07
-0.04196167	3.09906E-07	2.425232E-07
-0.03890991	3.09082E-07	2.424927E-07
-0.03585815	3.077698E-07	2.418823E-07
-0.0328064	3.068848E-07	2.417603E-07
-0.02975464	3.058777E-07	2.415466E-07
-0.02670288	3.049927E-07	2.41333E-07
-0.02365112	3.041077E-07	2.409973E-07
-0.02059937	3.034973E-07	2.410278E-07
-0.01754761	3.027954E-07	2.407227E-07
-0.01449585	3.021545E-07	2.407837E-07
-0.01144409	3.015747E-07	2.407227E-07
-0.008392334	3.008118E-07	2.40387E-07
-0.005340576	2.997436E-07	2.400513E-07
-0.002288818	2.990723E-07	2.394409E-07
0.0007629395	2.976685E-07	2.392273E-07
0.003814697	2.980042E-07	2.39563E-07
0.006866455	2.976074E-07	2.396546E-07
0.009918213	2.971802E-07	2.398682E-07
0.01296997	2.967224E-07	2.39624E-07
0.01602173	2.969666E-07	2.400513E-07
0.01907349	2.961426E-07	2.399292E-07
0.02212524	2.965393E-07	2.40387E-07
0.025177	2.96051E-07	2.403565E-07
0.02822876	2.962647E-07	2.409363E-07
0.03128052	2.965088E-07	2.412109E-07
0.03433228	2.962647E-07	2.415466E-07
0.03738403	2.964172E-07	2.42157E-07
0.04043579	2.967224E-07	2.425232E-07
0.04348755	2.970276E-07	2.430115E-07
0.04653931	2.973328E-07	2.437134E-07
0.04959106	2.972412E-07	2.439575E-07
0.05264282	2.979126E-07	2.449341E-07
0.05569458	2.976685E-07	2.450562E-07
0.05874634	2.984924E-07	2.461243E-07
0.0617981	2.990417E-07	2.468872E-07
0.06484985	2.994385E-07	2.476196E-07
0.06790161	3.001709E-07	2.484741E-07
0.07095337	3.00354E-07	2.49115E-07
0.07400513	3.013916E-07	2.503052E-07
0.07705688	3.021851E-07	2.515564E-07
0.08010864	3.024292E-07	2.522583E-07
0.0831604	3.02948E-07	2.531738E-07
0.08621216	3.032837E-07	2.537232E-07
0.08926392	3.03894E-07	2.546387E-07
0.09231567	3.043213E-07	2.553711E-07
0.09536743	3.050232E-07	2.562866E-07
0.09841919	3.059387E-07	2.574158E-07
0.1014709	3.06366E-07	2.583313E-07
0.1045227	3.073731E-07	2.593079E-07
0.1075745	3.083801E-07	2.605591E-07
0.1106262	3.092651E-07	2.616272E-07
0.113678	3.099975E-07	2.627563E-07
0.1167297	3.114319E-07	2.643127E-07
0.1197815	3.123779E-07	2.654114E-07
0.1228333	3.135071E-07	2.667541E-07
0.125885	3.149109E-07	2.681885E-07
0.1289368	3.1604E-07	2.697143E-07
0.1319885	3.173828E-07	2.711792E-07
0.1350403	3.185425E-07	2.726135E-07
0.138092	3.203735E-07	2.74292E-07
0.1411438	3.217163E-07	2.76001E-07
0.1441956	3.232422E-07	2.776184E-07
0.1472473	3.248901E-07	2.795105E-07
0.1502991	3.268433E-07	2.814331E-07
0.1533508	3.286133E-07	2.834167E-07
0.1564026	3.306885E-07	2.85553E-07
0.1594543	3.323059E-07	2.876282E-07
0.1625061	3.34198E-07	2.896118E-07
0.1655579	3.362732E-07	2.91687E-07
0.1686096	3.380737E-07	2.941894E-07
0.1716614	3.407898E-07	2.965698E-07
0.1747131	3.431091E-07	2.991943E-07
0.1777649	3.45459E-07	3.017578E-07
0.1808167	3.478089E-07	3.044129E-07
0.1838684	3.503723E-07	3.071594E-07
0.1869202	3.526306E-07	3.097534E-07
0.1899719	3.555298E-07	3.129273E-07
0.1930237	3.579407E-07	3.156433E-07
0.1960754	3.605652E-07	3.186035E-07
0.1991272	3.635559E-07	3.217468E-07
0.202179	3.661804E-07	3.250732E-07
0.2052307	3.691101E-07	3.28186E-07
0.2082825	3.719788E-07	3.314819E-07
0.2113342	3.745422E-07	3.346863E-07
0.214386	3.776856E-07	3.380737E-07
0.2174377	3.800049E-07	3.412781E-07
0.2204895	3.833923E-07	3.449097E-07
0.2235413	3.860474E-07	3.484802E-07
0.226593	3.88977E-07	3.518371E-07
0.2296448	3.917236E-07	3.551941E-07
0.2326965	3.944092E-07	3.58551E-07
0.2357483	3.971863E-07	3.622436E-07
0.2388	3.997803E-07	3.653564E-07
0.2418518	4.02832E-07	3.68988E-07
0.2449036	4.055481E-07	3.725891E-07
0.2479553	4.082031E-07	3.759155E-07
0.2510071	4.108887E-07	3.794556E-07
0.2540588	4.140411E-07	3.831482E-07
0.2571106	4.169067E-07	3.866882E-07
0.2601624	4.197418E-07	3.90564E-07
0.2632141	4.227936E-07	3.939819E-07
0.2662659	4.254364E-07	3.977356E-07
0.2693176	4.285736E-07	4.016724E-07
0.2723694	4.186096E-07	3.936768E-07
0.2754211	4.208984E-07	3.970337E-07
0.2784729	4.240418E-07	4.013062E-07
0.2815247	4.277954E-07	4.058838E-07
0.2845764	4.311523E-07	4.101562E-07
0.2876282	4.343567E-07	4.144287E-07
0.2906799	4.382324E-07	4.190063E-07
0.2937317	4.41864E-07	4.23584E-07
0.2967834	4.459534E-07	4.28772E-07
0.2998352	4.489136E-07	4.330444E-07
0.302887	4.53064E-07	4.382324E-07
0.3059387	4.568481E-07	4.431152E-07
0.3089905	4.613037E-07	4.486084E-07
0.3120422	4.653015E-07	4.537964E-07
0.315094	4.697266E-07	4.592895E-07
0.3181458	4.741821E-07	4.650879E-07
0.3211975	4.785462E-07	4.705811E-07
0.3242493	4.827576E-07	4.763794E-07
0.327301	4.868469E-07	4.818726E-07
0.3303528	4.91272E-07	4.876709E-07
0.3334045	4.957581E-07	4.934693E-07
0.3364563	5.006103E-07	4.99878E-07
0.3395081	5.047913E-07	5.059815E-07
0.3425598	5.097351E-07	5.123902E-07
0.3456116	5.145874E-07	5.184937E-07
0.3486633	5.189514E-07	5.249024E-07
0.3517151	5.239563E-07	5.313111E-07
0.3547668	5.281983E-07	5.374146E-07
0.3578186	5.329285E-07	5.441284E-07
0.3608704	5.375366E-07	5.508423E-07
0.3639221	5.426331E-07	5.57251E-07
0.3669739	5.471497E-07	5.639648E-07
0.3700256	5.524597E-07	5.709839E-07
0.3730774	5.568847E-07	5.776977E-07
0.3761292	5.615234E-07	5.844116E-07
0.3791809	5.670166E-07	5.92041E-07
0.3822327	5.718078E-07	5.990601E-07
0.3852844	5.772094E-07	6.063843E-07
0.3883362	5.823059E-07	6.137085E-07
0.3913879	5.870972E-07	6.210327E-07
0.3944397	5.922852E-07	6.286621E-07
0.3974915	5.977478E-07	6.362915E-07
0.4005432	6.027222E-07	6.439209E-07
0.403595	6.081848E-07	6.518555E-07
0.4066467	6.139221E-07	6.600952E-07
0.4096985	6.200256E-07	6.686402E-07
0.4127502	6.257324E-07	6.768799E-07
0.415802	6.315003E-07	6.8573E-07
0.4188538	6.375732E-07	6.942749E-07
0.4219055	6.444397E-07	7.040405E-07
0.4249573	6.511231E-07	7.13501E-07
0.428009	6.578369E-07	7.232666E-07
0.4310608	6.64917E-07	7.333374E-07
0.4341125	6.72638E-07	7.440186E-07
0.4371643	6.804505E-07	7.546997E-07
0.4402161	6.879883E-07	7.65686E-07
0.4432678	6.963806E-07	7.772827E-07
0.4463196	7.046814E-07	7.888794E-07
0.4493713	7.141113E-07	8.016968E-07
0.4524231	7.232971E-07	8.145142E-07
0.4554749	7.332764E-07	8.282471E-07
0.4585266	7.440186E-07	8.425903E-07
0.4615784	7.546997E-07	8.572388E-07
0.4646301	7.655029E-07	8.721924E-07
0.4676819	7.774353E-07	8.880615E-07
0.4707336	7.895202E-07	9.04541E-07
0.4737854	8.026123E-07	9.21936E-07
0.4768372	8.154908E-07	9.396362E-07
0.4798889	8.294983E-07	9.585572E-07
0.4829407	8.44635E-07	9.783936E-07
0.4859924	8.598633E-07	9.988403E-07
0.4890442	8.760376E-07	1.020508E-06
0.4920959	8.924561E-07	1.04248E-06
0.4951477	9.096374E-07	1.065979E-06
0.4981995	9.277039E-07	1.090393E-06
