Potential (V)	Current (A)	I forward (A)
-0.09994507	1.127319E-07	6.878662E-08
-0.09689331	1.089172E-07	7.144165E-08
-0.09384155	1.078491E-07	7.247925E-08
-0.09078979	1.071289E-07	7.318116E-08
-0.08773804	1.062836E-07	7.351684E-08
-0.08468628	1.055695E-07	7.366943E-08
-0.08163452	1.05011E-07	7.385254E-08
-0.07858276	1.042877E-07	7.391358E-08
-0.07553101	1.037781E-07	7.397461E-08
-0.07247925	1.031158E-07	7.382202E-08
-0.06942749	1.025665E-07	7.391358E-08
-0.06637573	1.020477E-07	7.385254E-08
-0.06332397	1.012756E-07	7.363892E-08
-0.06027222	1.011353E-07	7.382202E-08
-0.05722046	1.00412E-07	7.366943E-08
-0.0541687	9.99939E-08	7.348633E-08
-0.05111694	9.93927E-08	7.342529E-08
-0.04806519	9.920044E-08	7.348633E-08
-0.04501343	9.871826E-08	7.339477E-08
-0.04196167	9.830017E-08	7.324219E-08
-0.03890991	9.797363E-08	7.321167E-08
-0.03585815	9.777832E-08	7.318116E-08
-0.0328064	9.732361E-08	7.305908E-08
-0.02975464	9.713745E-08	7.30896E-08
-0.02670288	9.678955E-08	7.299805E-08
-0.02365112	9.638367E-08	7.281494E-08
-0.02059937	9.620972E-08	7.284546E-08
-0.01754761	9.60022E-08	7.287598E-08
-0.01449585	9.579468E-08	7.281494E-08
-0.01144409	9.563293E-08	7.284546E-08
-0.008392334	9.515686E-08	7.263183E-08
-0.005340576	9.522095E-08	7.287598E-08
-0.002288818	9.510804E-08	7.284546E-08
0.0007629395	9.462281E-08	7.278442E-08
0.003814697	9.462891E-08	7.293701E-08
0.006866455	9.438477E-08	7.281494E-08
0.009918213	9.423218E-08	7.287598E-08
0.01296997	9.402466E-08	7.284546E-08
0.01602173	9.413452E-08	7.302857E-08
0.01907349	9.413758E-08	7.30896E-08
0.02212524	9.384155E-08	7.305908E-08
0.025177	9.405517E-08	7.324219E-08
0.02822876	9.397888E-08	7.32727E-08
0.03128052	9.384155E-08	7.342529E-08
0.03433228	9.367371E-08	7.333374E-08
0.03738403	9.350891E-08	7.339477E-08
0.04043579	9.342956E-08	7.342529E-08
0.04348755	9.372559E-08	7.363892E-08
0.04653931	9.338684E-08	7.363892E-08
0.04959106	9.357605E-08	7.394409E-08
0.05264282	9.368591E-08	7.400513E-08
0.05569458	9.372864E-08	7.424926E-08
0.05874634	9.384155E-08	7.446289E-08
0.0617981	9.38385E-08	7.458496E-08
0.06484985	9.381409E-08	7.467651E-08
0.06790161	9.401245E-08	7.492066E-08
0.07095337	9.406128E-08	7.528686E-08
0.07400513	9.429932E-08	7.553101E-08
0.07705688	9.433288E-08	7.574463E-08
0.08010864	9.442139E-08	7.595825E-08
0.0831604	9.446106E-08	7.608032E-08
0.08621216	9.443054E-08	7.626343E-08
0.08926392	9.472351E-08	7.662964E-08
0.09231567	9.468079E-08	7.675171E-08
0.09536743	9.484558E-08	7.702636E-08
0.09841919	9.512024E-08	7.745361E-08
0.1014709	9.53186E-08	7.772827E-08
0.1045227	9.553223E-08	7.803344E-08
0.1075745	9.58374E-08	7.852173E-08
0.1106262	9.623718E-08	7.888794E-08
0.113678	9.623413E-08	7.91626E-08
0.1167297	9.682923E-08	7.977295E-08
0.1197815	9.696961E-08	8.013916E-08
0.1228333	9.73877E-08	8.056641E-08
0.125885	9.76532E-08	8.096313E-08
0.1289368	9.822693E-08	8.157349E-08
0.1319885	9.845581E-08	8.200073E-08
0.1350403	9.874878E-08	8.24585E-08
0.138092	9.926758E-08	8.309937E-08
0.1411438	9.985046E-08	8.374023E-08
0.1441956	1.00238E-07	8.428955E-08
0.1472473	1.008179E-07	8.499146E-08
0.1502991	1.014221E-07	8.569336E-08
0.1533508	1.02005E-07	8.639526E-08
0.1564026	1.025787E-07	8.728027E-08
0.1594543	1.033661E-07	8.807373E-08
0.1625061	1.038849E-07	8.874512E-08
0.1655579	1.046051E-07	8.966065E-08
0.1686096	1.053101E-07	9.051514E-08
0.1716614	1.062164E-07	9.152222E-08
0.1747131	1.069824E-07	9.25293E-08
0.1777649	1.076477E-07	9.341431E-08
0.1808167	1.084961E-07	9.451294E-08
0.1838684	1.096069E-07	9.576416E-08
0.1869202	1.10437E-07	9.686279E-08
0.1899719	1.113861E-07	9.80835E-08
0.1930237	1.124969E-07	9.93042E-08
0.1960754	1.133514E-07	1.005554E-07
0.1991272	1.144623E-07	1.018982E-07
0.202179	1.154999E-07	1.03241E-07
0.2052307	1.166626E-07	1.047668E-07
0.2082825	1.177826E-07	1.061707E-07
0.2113342	1.18988E-07	1.076965E-07
0.214386	1.201386E-07	1.092834E-07
0.2174377	1.21051E-07	1.106567E-07
0.2204895	1.223663E-07	1.123352E-07
0.2235413	1.23523E-07	1.139526E-07
0.226593	1.246613E-07	1.155701E-07
0.2296448	1.258789E-07	1.172485E-07
0.2326965	1.268707E-07	1.188049E-07
0.2357483	1.282196E-07	1.206055E-07
0.2388	1.293518E-07	1.222229E-07
0.2418518	1.304535E-07	1.238708E-07
0.2449036	1.31604E-07	1.257019E-07
0.2479553	1.326202E-07	1.274109E-07
0.2510071	1.33786E-07	1.291199E-07
0.2540588	1.349548E-07	1.309204E-07
0.2571106	1.359924E-07	1.326599E-07
0.2601624	1.370697E-07	1.34491E-07
0.2632141	1.380554E-07	1.361389E-07
0.2662659	1.391907E-07	1.38031E-07
0.2693176	1.402649E-07	1.399536E-07
0.2723694	1.413513E-07	1.418762E-07
0.2754211	1.425873E-07	1.437988E-07
0.2784729	1.437286E-07	1.457825E-07
0.2815247	1.449341E-07	1.477966E-07
0.2845764	1.459839E-07	1.499939E-07
0.2876282	1.472046E-07	1.520081E-07
0.2906799	1.484405E-07	1.541443E-07
0.2937317	1.498962E-07	1.564026E-07
0.2967834	1.513122E-07	1.58783E-07
0.2998352	1.528534E-07	1.611633E-07
0.302887	1.543671E-07	1.636963E-07
0.3059387	1.556427E-07	1.660156E-07
0.3089905	1.573975E-07	1.686707E-07
0.3120422	1.58902E-07	1.712952E-07
0.315094	1.607513E-07	1.740417E-07
0.3181458	1.62558E-07	1.768494E-07
0.3211975	1.642822E-07	1.79718E-07
0.3242493	1.660278E-07	1.825256E-07
0.327301	1.678711E-07	1.854858E-07
0.3303528	1.698303E-07	1.885376E-07
0.3334045	1.71579E-07	1.915588E-07
0.3364563	1.735382E-07	1.946411E-07
0.3395081	1.755493E-07	1.97937E-07
0.3425598	1.777832E-07	2.01416E-07
0.3456116	1.799164E-07	2.047729E-07
0.3486633	1.820526E-07	2.082825E-07
0.3517151	1.840973E-07	2.118225E-07
0.3547668	1.862762E-07	2.15332E-07
0.3578186	1.888519E-07	2.190552E-07
0.3608704	1.910309E-07	2.227478E-07
0.3639221	1.931488E-07	2.265625E-07
0.3669739	1.956146E-07	2.303467E-07
0.3700256	1.980743E-07	2.343445E-07
0.3730774	2.002564E-07	2.381897E-07
0.3761292	2.027893E-07	2.42279E-07
0.3791809	2.049866E-07	2.463074E-07
0.3822327	2.076111E-07	2.506104E-07
0.3852844	2.10083E-07	2.547607E-07
0.3883362	2.125549E-07	2.590942E-07
0.3913879	2.149658E-07	2.632752E-07
0.3944397	2.178345E-07	2.679138E-07
0.3974915	2.202454E-07	2.722168E-07
0.4005432	2.229309E-07	2.769165E-07
0.403595	2.25647E-07	2.817383E-07
0.4066467	2.286377E-07	2.86499E-07
0.4096985	2.313843E-07	2.913513E-07
0.4127502	2.340393E-07	2.962952E-07
0.415802	2.369995E-07	3.012695E-07
0.4188538	2.398987E-07	3.064575E-07
0.4219055	2.430115E-07	3.117981E-07
0.4249573	2.461853E-07	3.172302E-07
0.428009	2.494812E-07	3.227844E-07
0.4310608	2.52655E-07	3.285217E-07
0.4341125	2.563782E-07	3.344116E-07
0.4371643	2.598877E-07	3.404236E-07
0.4402161	2.635193E-07	3.466797E-07
0.4432678	2.671204E-07	3.529663E-07
0.4463196	2.712097E-07	3.594666E-07
0.4493713	2.750855E-07	3.661804E-07
0.4524231	2.794189E-07	3.731384E-07
0.4554749	2.839966E-07	3.805237E-07
0.4585266	2.882996E-07	3.877869E-07
0.4615784	2.931213E-07	3.954773E-07
0.4646301	2.981872E-07	4.033813E-07
0.4676819	3.010254E-07	4.09668E-07
0.4707336	3.059693E-07	4.180603E-07
0.4737854	3.110657E-07	4.263306E-07
0.4768372	3.165588E-07	4.351807E-07
0.4798889	3.223572E-07	4.443359E-07
0.4829407	3.28186E-07	4.534912E-07
0.4859924	3.348084E-07	4.63562E-07
0.4890442	3.406983E-07	4.733276E-07
0.4920959	3.476563E-07	4.837036E-07
0.4951477	3.54065E-07	4.940796E-07
0.4981995	3.61206E-07	5.050659E-07
